#Data file /home/ssanz/TFG/lrg_eboss/catalogue/eBOSS_LRGpCMASS_clustering_SGC_v7_2.dat_t1.txt
#Random file /home/ssanz/TFG/lrg_eboss/catalogue/eBOSS_LRGpCMASS_clustering_SGC_v7_2.ran_t1.txt
#Number of data elements used: 121717
#Number of random elements used: 6065434
#Effective number of data elements weighted by wcol: 129825.874207
#Effective number of random elements weighted by wcol: 6262432.996162
#Effective number of data elements weighted by wcol*wsys: 131020.639554
#Effective number of random elements weighted by wcol*wsys: 6174499.240464
#Effective number of data elements weighted by wcol*wsys*wfkp: 58854.466957
#Effective number of random elements weighted by wcol*wsys*wfkp: 2769143.999137
#Effective redshift value from data 0.762553
#Effective redshift value from randoms 0.767351
#Size of the Box 5000.000000 Mpc/h
#Area of the survey used 1.000000 deg^2
#Value of alpha: 0.021254
#Normalization using data file
#Normalization using density
#Normalization 2.852464e+00
#Shot noise factor 1.000000
#Shot noise value 12621.780293
#Type of Computation: FFT
#Number of grid cells: 512
#Type of Mass Assigment: P5S
#Type of Yamamoto: GridCenter
#Number of Interlacing steps: 2
#Grid Correction: yes
#Value of Om=0.310000 OL=0.640000
#Quadrupole as L0L2
#Hexadecapole as L2L2
#k-centerbin	 k-eff	 Monopole-Pshotnoise	 Quadrupole	 Hexadecapole	 number of modes	 Pshotnoise
0.005000 0.007493 68389.523388 20246.622667 3610.388760 2102 12621.780293
0.015000 0.016066 61494.944280 14388.177090 18228.955131 14776 12621.780293
0.025000 0.025663 51476.446355 5156.336185 -140.456966 40172 12621.780293
0.035000 0.035474 38473.732941 7532.343675 -10551.659573 77992 12621.780293
0.045000 0.045364 31540.572490 13410.579815 3164.794591 128744 12621.780293
0.055000 0.055298 27500.006921 10968.003272 5676.715314 192076 12621.780293
0.065000 0.065259 22980.061950 9544.399150 -1945.962756 268432 12621.780293
0.075000 0.075226 21228.976929 8444.318034 -102.758382 356456 12621.780293
0.085000 0.085200 18410.899970 7167.636543 3439.544873 458476 12621.780293
0.095000 0.095179 15193.247029 6015.770435 3940.356539 571640 12621.780293
0.105000 0.105167 12863.869732 5407.721020 1079.390117 699844 12621.780293
0.115000 0.115153 11737.457704 5084.204992 528.096501 836944 12621.780293
0.125000 0.125138 10984.240769 3334.271720 1020.664307 990800 12621.780293
0.135000 0.135129 9666.904592 3168.073845 -134.881634 1154092 12621.780293
0.145000 0.145115 8489.099579 2493.487225 -81.274148 1331264 12621.780293
0.155000 0.155110 7773.235959 2328.079944 1182.171166 1523272 12621.780293
0.165000 0.165106 6695.673598 1915.298630 797.229006 1724308 12621.780293
0.175000 0.175099 6320.494549 1425.002896 522.721199 1940000 12621.780293
0.185000 0.185092 5860.865854 1709.571321 -57.813138 2166820 12621.780293
0.195000 0.195086 5451.619398 1152.181793 -172.798822 2409008 12621.780293
0.205000 0.205085 5062.081792 1240.185307 208.266596 2662912 12621.780293
0.215000 0.215079 4826.212724 773.015147 112.148413 2925748 12621.780293
0.225000 0.225074 4412.019226 555.613519 528.111547 3207272 12621.780293
0.235000 0.235071 4229.261106 812.894933 -229.476134 3497242 12621.780293
0.245000 0.245068 3821.136524 726.451039 709.660645 3802172 12621.780293
0.255000 0.255064 3711.512692 971.895381 248.869196 4116616 12621.780293
0.265000 0.265062 3471.280776 519.013280 466.411099 4449244 12621.780293
0.275000 0.275059 3368.568875 407.409772 645.082025 4787288 12621.780293
0.285000 0.285055 2969.478965 293.323594 446.849980 5144392 12621.780293
0.295000 0.295057 2804.387591 283.817071 374.760005 5514980 12621.780293
0.305000 0.305058 2641.870149 126.756003 406.503619 5891128 12621.780293
0.315000 0.315054 2545.154972 221.100052 244.493105 6282664 12621.780293
