#Data file /home/ssanz/TFG/lrg_eboss/catalogue/eBOSS_LRGpCMASS_clustering_NGC_v7_2.dat_t1.txt
#Random file /home/ssanz/TFG/lrg_eboss/catalogue/eBOSS_LRGpCMASS_clustering_NGC_v7_2.ran_t1.txt
#Number of data elements used: 255741
#Number of random elements used: 13180418
#Effective number of data elements weighted by wcol: 272225.865990
#Effective number of random elements weighted by wcol: 13502637.193769
#Effective number of data elements weighted by wcol*wsys: 271145.058630
#Effective number of random elements weighted by wcol*wsys: 13305549.885500
#Effective number of data elements weighted by wcol*wsys*wfkp: 126763.186623
#Effective number of random elements weighted by wcol*wsys*wfkp: 6203321.353026
#Effective redshift value from data 0.743469
#Effective redshift value from randoms 0.747344
#Size of the Box 5000.000000 Mpc/h
#Area of the survey used 1.000000 deg^2
#Value of alpha: 0.020435
#Normalization using data file
#Normalization using density
#Normalization 5.975205e+00
#Shot noise factor 1.000000
#Shot noise value 13070.994229
#Type of Computation: FFT
#Number of grid cells: 512
#Type of Mass Assigment: P5S
#Type of Yamamoto: GridCenter
#Number of Interlacing steps: 2
#Grid Correction: yes
#Value of Om=0.310000 OL=0.840000
#Quadrupole as L0L2
#Hexadecapole as L2L2
#k-centerbin	 k-eff	 Monopole-Pshotnoise	 Quadrupole	 Hexadecapole	 number of modes	 Pshotnoise
0.005000 0.007493 76180.183770 66253.476618 59995.755695 2102 13070.994229
0.015000 0.016066 61058.167499 15815.803065 15851.823064 14776 13070.994229
0.025000 0.025663 47337.119199 21099.455047 -624.915987 40172 13070.994229
0.035000 0.035474 41076.681708 19061.561261 5410.121062 77992 13070.994229
0.045000 0.045364 32287.115759 9383.452311 857.015700 128744 13070.994229
0.055000 0.055298 27723.971219 10690.560471 2964.937004 192076 13070.994229
0.065000 0.065259 24566.031054 8697.105005 -139.689310 268432 13070.994229
0.075000 0.075226 20541.575515 6779.456343 -6.479100 356456 13070.994229
0.085000 0.085200 18029.865213 5028.413016 1538.022230 458476 13070.994229
0.095000 0.095179 15029.661690 4147.571569 -119.927205 571640 13070.994229
0.105000 0.105167 12855.101412 3870.648959 -14.930935 699844 13070.994229
0.115000 0.115153 11614.482958 4310.352196 -333.986892 836944 13070.994229
0.125000 0.125138 10803.803859 3103.885278 -572.428012 990800 13070.994229
0.135000 0.135129 9383.269782 3031.822791 100.834900 1154092 13070.994229
0.145000 0.145115 8355.648279 1926.260352 481.268038 1331264 13070.994229
0.155000 0.155110 7440.936545 1873.245888 432.711708 1523272 13070.994229
0.165000 0.165106 6729.957324 2026.847443 930.780877 1724308 13070.994229
0.175000 0.175099 6404.802927 1524.456766 555.682475 1940000 13070.994229
0.185000 0.185092 5973.790995 1451.180366 661.870900 2166820 13070.994229
0.195000 0.195086 5444.861298 1164.045677 361.466173 2409008 13070.994229
0.205000 0.205085 4966.610846 966.847776 612.135935 2662912 13070.994229
0.215000 0.215079 4653.803075 751.965975 802.176909 2925748 13070.994229
0.225000 0.225074 4149.472184 945.908161 571.798175 3207272 13070.994229
0.235000 0.235071 4038.217375 592.453184 375.213957 3497242 13070.994229
0.245000 0.245068 3808.352407 582.181367 531.453208 3802172 13070.994229
0.255000 0.255064 3498.766911 605.161458 174.959270 4116616 13070.994229
0.265000 0.265062 3309.651817 521.204378 107.434101 4449244 13070.994229
0.275000 0.275059 2984.962969 225.353943 509.040800 4787288 13070.994229
0.285000 0.285055 2838.177472 313.349393 337.439871 5144392 13070.994229
0.295000 0.295057 2751.739433 247.934766 501.967727 5514980 13070.994229
0.305000 0.305058 2579.601974 133.402060 355.658342 5891128 13070.994229
0.315000 0.315054 2364.666191 85.887468 366.076752 6282664 13070.994229
