#Data file /home/ssanz/TFG/lrg_eboss/catalogue/eBOSS_LRGpCMASS_clustering_SGC_v7_2.dat_t1.txt
#Random file /home/ssanz/TFG/lrg_eboss/catalogue/eBOSS_LRGpCMASS_clustering_SGC_v7_2.ran_t1.txt
#Number of data elements used: 121717
#Number of random elements used: 6065434
#Effective number of data elements weighted by wcol: 129825.874207
#Effective number of random elements weighted by wcol: 6262432.996162
#Effective number of data elements weighted by wcol*wsys: 131020.639554
#Effective number of random elements weighted by wcol*wsys: 6174499.240464
#Effective number of data elements weighted by wcol*wsys*wfkp: 58854.466957
#Effective number of random elements weighted by wcol*wsys*wfkp: 2769143.999137
#Effective redshift value from data 0.762553
#Effective redshift value from randoms 0.767351
#Size of the Box 5000.000000 Mpc/h
#Area of the survey used 1.000000 deg^2
#Value of alpha: 0.021254
#Normalization using data file
#Normalization using density
#Normalization 2.852464e+00
#Shot noise factor 1.000000
#Shot noise value 12621.780293
#Type of Computation: FFT
#Number of grid cells: 512
#Type of Mass Assigment: P5S
#Type of Yamamoto: GridCenter
#Number of Interlacing steps: 2
#Grid Correction: yes
#Value of Om=0.310000 OL=0.590000
#Quadrupole as L0L2
#Hexadecapole as L2L2
#k-centerbin	 k-eff	 Monopole-Pshotnoise	 Quadrupole	 Hexadecapole	 number of modes	 Pshotnoise
0.005000 0.007493 68880.324375 19868.640806 2361.108142 2102 12621.780293
0.015000 0.016066 61552.015756 14597.366987 17858.423673 14776 12621.780293
0.025000 0.025663 51757.860028 5476.629463 890.170887 40172 12621.780293
0.035000 0.035474 38897.502988 7266.001591 -11120.712497 77992 12621.780293
0.045000 0.045364 31805.565363 13417.703240 2700.606091 128744 12621.780293
0.055000 0.055298 27579.071673 11024.832014 6136.102980 192076 12621.780293
0.065000 0.065259 23207.899145 9870.202337 -1768.352490 268432 12621.780293
0.075000 0.075226 21358.566528 8337.231864 -209.836074 356456 12621.780293
0.085000 0.085200 18745.166737 7356.048908 3250.970326 458476 12621.780293
0.095000 0.095179 15492.079044 6242.683321 3987.579770 571640 12621.780293
0.105000 0.105167 13015.211948 5386.475015 1380.682302 699844 12621.780293
0.115000 0.115153 11782.325570 5303.370957 456.503632 836944 12621.780293
0.125000 0.125138 11107.540764 3544.119187 1177.244413 990800 12621.780293
0.135000 0.135129 9875.174652 3111.537218 -55.076011 1154092 12621.780293
0.145000 0.145115 8696.957254 2664.413684 -161.825636 1331264 12621.780293
0.155000 0.155110 7860.198807 2320.725514 980.699730 1523272 12621.780293
0.165000 0.165106 6807.637683 2112.236868 1055.184007 1724308 12621.780293
0.175000 0.175099 6392.843450 1449.053898 509.024350 1940000 12621.780293
0.185000 0.185092 5939.572748 1686.838198 62.243798 2166820 12621.780293
0.195000 0.195086 5554.740310 1283.527094 -179.321807 2409008 12621.780293
0.205000 0.205085 5081.355772 1259.734216 123.961725 2662912 12621.780293
0.215000 0.215079 4898.815297 936.739050 124.891192 2925748 12621.780293
0.225000 0.225074 4509.040498 488.272776 486.234664 3207272 12621.780293
0.235000 0.235071 4243.611799 926.660516 -117.186857 3497242 12621.780293
0.245000 0.245068 3915.101427 602.927185 412.615295 3802172 12621.780293
0.255000 0.255064 3763.839015 963.720981 547.643741 4116616 12621.780293
0.265000 0.265062 3518.572064 675.142281 268.287904 4449244 12621.780293
0.275000 0.275059 3413.859832 478.114076 709.900230 4787288 12621.780293
0.285000 0.285055 3028.211237 322.516696 498.065414 5144392 12621.780293
0.295000 0.295057 2876.116466 355.255125 414.658530 5514980 12621.780293
0.305000 0.305058 2712.165697 86.342437 409.744938 5891128 12621.780293
0.315000 0.315054 2545.894097 170.178901 244.632647 6282664 12621.780293
