#Data file /home/ssanz/TFG/lrg_eboss/catalogue/eBOSS_LRGpCMASS_clustering_SGC_v7_2.dat_t1.txt
#Random file /home/ssanz/TFG/lrg_eboss/catalogue/eBOSS_LRGpCMASS_clustering_SGC_v7_2.ran_t1.txt
#Number of data elements used: 121717
#Number of random elements used: 6065434
#Effective number of data elements weighted by wcol: 129825.874207
#Effective number of random elements weighted by wcol: 6262432.996162
#Effective number of data elements weighted by wcol*wsys: 131020.639554
#Effective number of random elements weighted by wcol*wsys: 6174499.240464
#Effective number of data elements weighted by wcol*wsys*wfkp: 58854.466957
#Effective number of random elements weighted by wcol*wsys*wfkp: 2769143.999137
#Effective redshift value from data 0.762553
#Effective redshift value from randoms 0.767351
#Size of the Box 5000.000000 Mpc/h
#Area of the survey used 1.000000 deg^2
#Value of alpha: 0.021254
#Normalization using data file
#Normalization using density
#Normalization 2.852464e+00
#Shot noise factor 1.000000
#Shot noise value 12621.780293
#Type of Computation: FFT
#Number of grid cells: 512
#Type of Mass Assigment: P5S
#Type of Yamamoto: GridCenter
#Number of Interlacing steps: 2
#Grid Correction: yes
#Value of Om=0.210000 OL=0.690000
#Quadrupole as L0L2
#Hexadecapole as L2L2
#k-centerbin	 k-eff	 Monopole-Pshotnoise	 Quadrupole	 Hexadecapole	 number of modes	 Pshotnoise
0.005000 0.007493 65959.267111 21464.033600 8574.777577 2102 12621.780293
0.015000 0.016066 60877.268250 13723.168231 19511.439849 14776 12621.780293
0.025000 0.025663 50028.041434 2965.528774 -5388.301509 40172 12621.780293
0.035000 0.035474 36963.218362 8843.319843 -6995.816191 77992 12621.780293
0.045000 0.045364 30326.507223 12283.212580 3760.234914 128744 12621.780293
0.055000 0.055298 26593.148290 10039.444546 2199.179561 192076 12621.780293
0.065000 0.065259 22338.903061 8138.140375 -1710.101546 268432 12621.780293
0.075000 0.075226 20299.376791 8610.165978 944.587588 356456 12621.780293
0.085000 0.085200 17041.443970 5929.083134 4042.919753 458476 12621.780293
0.095000 0.095179 13955.447467 4421.957062 2296.003816 571640 12621.780293
0.105000 0.105167 12216.614027 5184.006918 350.330678 699844 12621.780293
0.115000 0.115153 11288.457330 3585.722067 767.955782 836944 12621.780293
0.125000 0.125138 10182.602176 2551.605940 -330.271961 990800 12621.780293
0.135000 0.135129 8829.058473 2274.486898 -235.992107 1154092 12621.780293
0.145000 0.145115 7956.353223 2301.744525 597.889094 1331264 12621.780293
0.155000 0.155110 6876.146623 1439.587795 729.226144 1523272 12621.780293
0.165000 0.165106 6343.293794 1286.034424 526.682187 1724308 12621.780293
0.175000 0.175099 5950.192179 1375.268783 -5.541583 1940000 12621.780293
0.185000 0.185092 5473.973716 1089.242828 -261.391311 2166820 12621.780293
0.195000 0.195086 5040.681746 1056.535736 -138.250271 2409008 12621.780293
0.205000 0.205085 4741.535202 514.523936 273.383348 2662912 12621.780293
0.215000 0.215079 4460.574384 421.791367 530.632310 2925748 12621.780293
0.225000 0.225074 4144.558758 627.510350 -167.206263 3207272 12621.780293
0.235000 0.235071 3826.558605 746.828163 614.613407 3497242 12621.780293
0.245000 0.245068 3644.078421 691.725571 115.840268 3802172 12621.780293
0.255000 0.255064 3451.151951 430.592498 599.650847 4116616 12621.780293
0.265000 0.265062 3164.763720 12.256391 592.404802 4449244 12621.780293
0.275000 0.275059 2884.924120 88.978408 252.009984 4787288 12621.780293
0.285000 0.285055 2698.339212 91.685046 283.472230 5144392 12621.780293
0.295000 0.295057 2634.051151 90.522887 361.326567 5514980 12621.780293
0.305000 0.305058 2455.166829 0.815005 250.598318 5891128 12621.780293
0.315000 0.315054 2239.735277 68.112577 171.476262 6282664 12621.780293
