#Data file /home/ssanz/TFG/lrg_eboss/catalogue/eBOSS_LRGpCMASS_clustering_SGC_v7_2.dat_t1.txt
#Random file /home/ssanz/TFG/lrg_eboss/catalogue/eBOSS_LRGpCMASS_clustering_SGC_v7_2.ran_t1.txt
#Number of data elements used: 121717
#Number of random elements used: 6065434
#Effective number of data elements weighted by wcol: 129825.874207
#Effective number of random elements weighted by wcol: 6262432.996162
#Effective number of data elements weighted by wcol*wsys: 131020.639554
#Effective number of random elements weighted by wcol*wsys: 6174499.240464
#Effective number of data elements weighted by wcol*wsys*wfkp: 58854.466957
#Effective number of random elements weighted by wcol*wsys*wfkp: 2769143.999137
#Effective redshift value from data 0.762553
#Effective redshift value from randoms 0.767351
#Size of the Box 5000.000000 Mpc/h
#Area of the survey used 1.000000 deg^2
#Value of alpha: 0.021254
#Normalization using data file
#Normalization using density
#Normalization 2.852464e+00
#Shot noise factor 1.000000
#Shot noise value 12621.780293
#Type of Computation: FFT
#Number of grid cells: 512
#Type of Mass Assigment: P5S
#Type of Yamamoto: GridCenter
#Number of Interlacing steps: 2
#Grid Correction: yes
#Value of Om=0.510000 OL=0.690000
#Quadrupole as L0L2
#Hexadecapole as L2L2
#k-centerbin	 k-eff	 Monopole-Pshotnoise	 Quadrupole	 Hexadecapole	 number of modes	 Pshotnoise
0.005000 0.007493 70796.596902 19187.836975 -198.800749 2102 12621.780293
0.015000 0.016066 61899.318171 14569.986458 15103.032840 14776 12621.780293
0.025000 0.025663 52663.253929 9067.362518 9602.439300 40172 12621.780293
0.035000 0.035474 41367.697023 7853.076782 -13676.287112 77992 12621.780293
0.045000 0.045364 32573.900271 12816.701361 -113.808536 128744 12621.780293
0.055000 0.055298 28398.906628 11231.957545 7043.538909 192076 12621.780293
0.065000 0.065259 24014.222317 13232.021082 2669.328404 268432 12621.780293
0.075000 0.075226 21930.792232 8106.988926 -735.878450 356456 12621.780293
0.085000 0.085200 19850.621102 8599.282561 1280.426041 458476 12621.780293
0.095000 0.095179 16963.477040 7386.326187 3876.399645 571640 12621.780293
0.105000 0.105167 14107.403574 6682.124615 3709.466312 699844 12621.780293
0.115000 0.115153 12248.907029 6217.087237 909.367616 836944 12621.780293
0.125000 0.125138 11622.283034 4741.979402 1163.577544 990800 12621.780293
0.135000 0.135129 10640.638351 4093.919896 1829.462794 1154092 12621.780293
0.145000 0.145115 9431.904247 3700.015464 88.338281 1331264 12621.780293
0.155000 0.155110 8528.449741 3275.658711 427.495603 1523272 12621.780293
0.165000 0.165106 7573.967163 2436.871087 885.573618 1724308 12621.780293
0.175000 0.175099 6811.859982 2534.201189 1745.284650 1940000 12621.780293
0.185000 0.185092 6329.632055 1947.314491 748.622570 2166820 12621.780293
0.195000 0.195086 5888.011000 1998.911122 -369.035920 2409008 12621.780293
0.205000 0.205085 5627.201890 1855.931904 357.801855 2662912 12621.780293
0.215000 0.215079 5074.240254 1282.178625 131.258649 2925748 12621.780293
0.225000 0.225074 4929.728852 1138.406511 408.203121 3207272 12621.780293
0.235000 0.235071 4596.417714 1179.100214 372.166156 3497242 12621.780293
0.245000 0.245068 4235.359467 848.899485 94.846072 3802172 12621.780293
0.255000 0.255064 4024.374801 941.192408 219.133817 4116616 12621.780293
0.265000 0.265062 3717.870038 834.779404 452.999364 4449244 12621.780293
0.275000 0.275059 3589.889566 1116.237517 731.137359 4787288 12621.780293
0.285000 0.285055 3551.864284 737.198353 528.717469 5144392 12621.780293
0.295000 0.295057 3178.353845 601.749193 424.195776 5514980 12621.780293
0.305000 0.305058 2990.380585 608.075483 562.491348 5891128 12621.780293
0.315000 0.315054 2799.704402 350.837641 544.153588 6282664 12621.780293
