#Data file /home/ssanz/TFG/lrg_eboss/catalogue/eBOSS_LRGpCMASS_clustering_SGC_v7_2.dat_t1.txt
#Random file /home/ssanz/TFG/lrg_eboss/catalogue/eBOSS_LRGpCMASS_clustering_SGC_v7_2.ran_t1.txt
#Number of data elements used: 121717
#Number of random elements used: 6065434
#Effective number of data elements weighted by wcol: 129825.874207
#Effective number of random elements weighted by wcol: 6262432.996162
#Effective number of data elements weighted by wcol*wsys: 131020.639554
#Effective number of random elements weighted by wcol*wsys: 6174499.240464
#Effective number of data elements weighted by wcol*wsys*wfkp: 58854.466957
#Effective number of random elements weighted by wcol*wsys*wfkp: 2769143.999137
#Effective redshift value from data 0.762553
#Effective redshift value from randoms 0.767351
#Size of the Box 5000.000000 Mpc/h
#Area of the survey used 1.000000 deg^2
#Value of alpha: 0.021254
#Normalization using data file
#Normalization using density
#Normalization 2.852464e+00
#Shot noise factor 1.000000
#Shot noise value 12621.780293
#Type of Computation: FFT
#Number of grid cells: 512
#Type of Mass Assigment: P5S
#Type of Yamamoto: GridCenter
#Number of Interlacing steps: 2
#Grid Correction: yes
#Value of Om=0.360000 OL=0.690000
#Quadrupole as L0L2
#Hexadecapole as L2L2
#k-centerbin	 k-eff	 Monopole-Pshotnoise	 Quadrupole	 Hexadecapole	 number of modes	 Pshotnoise
0.005000 0.007493 68737.544577 20238.542668 3354.175956 2102 12621.780293
0.015000 0.016066 61618.727736 14308.684038 17754.734373 14776 12621.780293
0.025000 0.025663 51663.983971 5870.951874 1378.480181 40172 12621.780293
0.035000 0.035474 38769.597462 7605.087680 -11240.107631 77992 12621.780293
0.045000 0.045364 31734.017768 13587.384623 2945.294152 128744 12621.780293
0.055000 0.055298 27500.391826 10919.046521 6000.169939 192076 12621.780293
0.065000 0.065259 23167.095128 10133.326309 -1450.702509 268432 12621.780293
0.075000 0.075226 21255.191636 8366.405888 -237.952389 356456 12621.780293
0.085000 0.085200 18706.417789 7533.409617 3331.582733 458476 12621.780293
0.095000 0.095179 15441.875174 6386.959033 4027.270213 571640 12621.780293
0.105000 0.105167 12946.758859 5586.379476 1452.518346 699844 12621.780293
0.115000 0.115153 11776.377977 5259.344085 529.570195 836944 12621.780293
0.125000 0.125138 11094.845151 3666.317352 1325.538681 990800 12621.780293
0.135000 0.135129 9819.713642 3227.144166 -20.075620 1154092 12621.780293
0.145000 0.145115 8687.912644 2844.943059 -161.570595 1331264 12621.780293
0.155000 0.155110 7815.556133 2274.169682 1019.506936 1523272 12621.780293
0.165000 0.165106 6801.107153 2268.776678 1240.410144 1724308 12621.780293
0.175000 0.175099 6377.265837 1471.938424 442.248092 1940000 12621.780293
0.185000 0.185092 5929.374313 1851.651260 42.554728 2166820 12621.780293
0.195000 0.195086 5547.474032 1326.199820 -52.799032 2409008 12621.780293
0.205000 0.205085 5073.413222 1209.419068 60.685824 2662912 12621.780293
0.215000 0.215079 4909.768543 1026.710342 245.986781 2925748 12621.780293
0.225000 0.225074 4472.960978 553.198508 406.827933 3207272 12621.780293
0.235000 0.235071 4243.704806 901.688196 -114.222609 3497242 12621.780293
0.245000 0.245068 3888.231141 655.646600 440.624941 3802172 12621.780293
0.255000 0.255064 3736.622275 999.141424 600.557400 4116616 12621.780293
0.265000 0.265062 3537.012133 741.928643 278.693571 4449244 12621.780293
0.275000 0.275059 3399.333043 426.436669 625.574491 4787288 12621.780293
0.285000 0.285055 3025.528937 407.128269 591.100028 5144392 12621.780293
0.295000 0.295057 2868.540301 405.495316 425.294224 5514980 12621.780293
0.305000 0.305058 2712.402637 157.313585 404.071228 5891128 12621.780293
0.315000 0.315054 2531.987693 176.159975 279.116817 6282664 12621.780293
