#Data file /home/ssanz/TFG/lrg_eboss/catalogue/eBOSS_LRGpCMASS_clustering_NGC_v7_2.dat_t1.txt
#Random file /home/ssanz/TFG/lrg_eboss/catalogue/eBOSS_LRGpCMASS_clustering_NGC_v7_2.ran_t1.txt
#Number of data elements used: 255741
#Number of random elements used: 13180418
#Effective number of data elements weighted by wcol: 272225.865990
#Effective number of random elements weighted by wcol: 13502637.193769
#Effective number of data elements weighted by wcol*wsys: 271145.058630
#Effective number of random elements weighted by wcol*wsys: 13305549.885500
#Effective number of data elements weighted by wcol*wsys*wfkp: 126763.186623
#Effective number of random elements weighted by wcol*wsys*wfkp: 6203321.353026
#Effective redshift value from data 0.743469
#Effective redshift value from randoms 0.747344
#Size of the Box 5000.000000 Mpc/h
#Area of the survey used 1.000000 deg^2
#Value of alpha: 0.020435
#Normalization using data file
#Normalization using density
#Normalization 5.975205e+00
#Shot noise factor 1.000000
#Shot noise value 13070.994229
#Type of Computation: FFT
#Number of grid cells: 512
#Type of Mass Assigment: P5S
#Type of Yamamoto: GridCenter
#Number of Interlacing steps: 2
#Grid Correction: yes
#Value of Om=0.310000 OL=0.490000
#Quadrupole as L0L2
#Hexadecapole as L2L2
#k-centerbin	 k-eff	 Monopole-Pshotnoise	 Quadrupole	 Hexadecapole	 number of modes	 Pshotnoise
0.005000 0.007493 80904.380895 71692.549180 64822.561018 2102 13070.994229
0.015000 0.016066 61206.264877 16506.920692 22123.623562 14776 13070.994229
0.025000 0.025663 49350.342006 20948.967253 -902.651517 40172 13070.994229
0.035000 0.035474 43410.414285 18857.935430 3391.710823 77992 13070.994229
0.045000 0.045364 34179.216586 14144.894537 3681.852604 128744 13070.994229
0.055000 0.055298 29716.278569 9168.902740 1829.218937 192076 13070.994229
0.065000 0.065259 25507.419423 10655.501733 1559.143610 268432 13070.994229
0.075000 0.075226 22521.720910 7711.200584 -90.251650 356456 13070.994229
0.085000 0.085200 19423.057577 6545.855624 1483.098090 458476 13070.994229
0.095000 0.095179 17140.997719 5305.257745 699.433870 571640 13070.994229
0.105000 0.105167 14417.017955 4265.669438 -72.553610 699844 13070.994229
0.115000 0.115153 12340.019435 4141.298527 367.339268 836944 13070.994229
0.125000 0.125138 11517.394026 4462.795335 -249.182708 990800 13070.994229
0.135000 0.135129 10786.074469 3227.351441 -624.379044 1154092 13070.994229
0.145000 0.145115 9371.463826 3296.322832 145.893592 1331264 13070.994229
0.155000 0.155110 8458.259891 2315.932947 739.263106 1523272 13070.994229
0.165000 0.165106 7547.142101 2014.751545 242.769748 1724308 13070.994229
0.175000 0.175099 6842.910021 2078.217046 997.167710 1940000 13070.994229
0.185000 0.185092 6516.818531 1730.004926 933.637138 2166820 13070.994229
0.195000 0.195086 6102.350801 1637.545114 614.758461 2409008 13070.994229
0.205000 0.205085 5686.936788 1499.699956 574.753001 2662912 13070.994229
0.215000 0.215079 5237.352609 1207.111753 287.532472 2925748 13070.994229
0.225000 0.225074 4823.583926 830.983055 898.272057 3207272 13070.994229
0.235000 0.235071 4462.342844 1073.034834 708.336288 3497242 13070.994229
0.245000 0.245068 4084.351772 895.800601 714.125041 3802172 13070.994229
0.255000 0.255064 3989.604387 654.857714 380.865754 4116616 13070.994229
0.265000 0.265062 3771.983839 759.649053 459.773437 4449244 13070.994229
0.275000 0.275059 3496.149696 665.744736 202.660560 4787288 13070.994229
0.285000 0.285055 3291.104831 595.482319 188.195460 5144392 13070.994229
0.295000 0.295057 3045.058348 414.554107 501.045751 5514980 13070.994229
0.305000 0.305058 2817.452814 306.442748 360.542160 5891128 13070.994229
0.315000 0.315054 2775.997752 297.373961 589.418124 6282664 13070.994229
