#Data file /home/ssanz/TFG/lrg_eboss/catalogue/eBOSS_LRGpCMASS_clustering_NGC_v7_2.dat_t1.txt
#Random file /home/ssanz/TFG/lrg_eboss/catalogue/eBOSS_LRGpCMASS_clustering_NGC_v7_2.ran_t1.txt
#Number of data elements used: 255741
#Number of random elements used: 13180418
#Effective number of data elements weighted by wcol: 272225.865990
#Effective number of random elements weighted by wcol: 13502637.193769
#Effective number of data elements weighted by wcol*wsys: 271145.058630
#Effective number of random elements weighted by wcol*wsys: 13305549.885500
#Effective number of data elements weighted by wcol*wsys*wfkp: 126763.186623
#Effective number of random elements weighted by wcol*wsys*wfkp: 6203321.353026
#Effective redshift value from data 0.743469
#Effective redshift value from randoms 0.747344
#Size of the Box 5000.000000 Mpc/h
#Area of the survey used 1.000000 deg^2
#Value of alpha: 0.020435
#Normalization using data file
#Normalization using density
#Normalization 5.975205e+00
#Shot noise factor 1.000000
#Shot noise value 13070.994229
#Type of Computation: FFT
#Number of grid cells: 512
#Type of Mass Assigment: P5S
#Type of Yamamoto: GridCenter
#Number of Interlacing steps: 2
#Grid Correction: yes
#Value of Om=0.360000 OL=0.690000
#Quadrupole as L0L2
#Hexadecapole as L2L2
#k-centerbin	 k-eff	 Monopole-Pshotnoise	 Quadrupole	 Hexadecapole	 number of modes	 Pshotnoise
0.005000 0.007493 79205.522222 70055.127824 63617.285482 2102 13070.994229
0.015000 0.016066 61088.956659 16197.955959 20385.114520 14776 13070.994229
0.025000 0.025663 48640.423028 21067.604504 -1015.002832 40172 13070.994229
0.035000 0.035474 42791.128355 19047.727655 3772.652667 77992 13070.994229
0.045000 0.045364 33561.388986 12951.750746 3404.552816 128744 13070.994229
0.055000 0.055298 29143.996434 9588.183510 2276.561690 192076 13070.994229
0.065000 0.065259 25190.461558 10414.193674 1237.273869 268432 13070.994229
0.075000 0.075226 21866.307063 7584.281069 -263.798158 356456 13070.994229
0.085000 0.085200 19059.952282 6191.106759 2079.525225 458476 13070.994229
0.095000 0.095179 16520.810090 5487.367635 126.150172 571640 13070.994229
0.105000 0.105167 13880.775241 4275.592927 30.008775 699844 13070.994229
0.115000 0.115153 12045.078284 4168.429676 391.116381 836944 13070.994229
0.125000 0.125138 11405.574482 4242.340810 -486.361445 990800 13070.994229
0.135000 0.135129 10250.481230 3359.240470 -358.532406 1154092 13070.994229
0.145000 0.145115 9125.362009 3063.149903 362.802259 1331264 13070.994229
0.155000 0.155110 8191.843393 2074.934201 483.625081 1523272 13070.994229
0.165000 0.165106 7305.120063 1921.655649 659.576073 1724308 13070.994229
0.175000 0.175099 6643.653034 2181.824793 981.386867 1940000 13070.994229
0.185000 0.185092 6348.801424 1703.557647 682.249959 2166820 13070.994229
0.195000 0.195086 5972.444228 1558.127656 717.520692 2409008 13070.994229
0.205000 0.205085 5454.417973 1440.875241 534.972496 2662912 13070.994229
0.215000 0.215079 5041.095003 1091.876650 443.650988 2925748 13070.994229
0.225000 0.225074 4657.101078 831.269662 919.305203 3207272 13070.994229
0.235000 0.235071 4248.060037 1177.270356 607.471250 3497242 13070.994229
0.245000 0.245068 4071.864016 709.145314 584.552719 3802172 13070.994229
0.255000 0.255064 3896.349680 670.100486 461.654354 4116616 13070.994229
0.265000 0.265062 3559.774504 818.420736 207.182116 4449244 13070.994229
0.275000 0.275059 3380.548332 605.457399 254.294424 4787288 13070.994229
0.285000 0.285055 3175.711443 561.714260 354.719735 5144392 13070.994229
0.295000 0.295057 2847.776086 297.992105 409.205176 5514980 13070.994229
0.305000 0.305058 2821.703640 269.338909 468.178659 5891128 13070.994229
0.315000 0.315054 2702.608826 344.308595 440.682558 6282664 13070.994229
