#Data file /home/ssanz/TFG/lrg_eboss/catalogue/eBOSS_LRGpCMASS_clustering_NGC_v7_2.dat_t1.txt
#Random file /home/ssanz/TFG/lrg_eboss/catalogue/eBOSS_LRGpCMASS_clustering_NGC_v7_2.ran_t1.txt
#Number of data elements used: 255741
#Number of random elements used: 13180418
#Effective number of data elements weighted by wcol: 272225.865990
#Effective number of random elements weighted by wcol: 13502637.193769
#Effective number of data elements weighted by wcol*wsys: 271145.058630
#Effective number of random elements weighted by wcol*wsys: 13305549.885500
#Effective number of data elements weighted by wcol*wsys*wfkp: 126763.186623
#Effective number of random elements weighted by wcol*wsys*wfkp: 6203321.353026
#Effective redshift value from data 0.743469
#Effective redshift value from randoms 0.747344
#Size of the Box 5000.000000 Mpc/h
#Area of the survey used 1.000000 deg^2
#Value of alpha: 0.020435
#Normalization using data file
#Normalization using density
#Normalization 5.975205e+00
#Shot noise factor 1.000000
#Shot noise value 13070.994229
#Type of Computation: FFT
#Number of grid cells: 512
#Type of Mass Assigment: P5S
#Type of Yamamoto: GridCenter
#Number of Interlacing steps: 2
#Grid Correction: yes
#Value of Om=0.210000 OL=0.690000
#Quadrupole as L0L2
#Hexadecapole as L2L2
#k-centerbin	 k-eff	 Monopole-Pshotnoise	 Quadrupole	 Hexadecapole	 number of modes	 Pshotnoise
0.005000 0.007493 76252.493953 65881.361243 58660.665862 2102 13070.994229
0.015000 0.016066 61217.695256 15824.759114 15265.199842 14776 13070.994229
0.025000 0.025663 47407.045055 21172.159890 -619.350395 40172 13070.994229
0.035000 0.035474 40917.448126 18373.019033 5072.501736 77992 13070.994229
0.045000 0.045364 32216.679629 8860.020932 24.851850 128744 13070.994229
0.055000 0.055298 27714.856279 10336.300716 2991.880985 192076 13070.994229
0.065000 0.065259 24362.242507 7981.763335 -864.227760 268432 13070.994229
0.075000 0.075226 20434.984746 6356.608894 149.391414 356456 13070.994229
0.085000 0.085200 17925.762341 4514.588738 1033.519817 458476 13070.994229
0.095000 0.095179 14917.197903 3829.743290 48.978080 571640 13070.994229
0.105000 0.105167 12746.021466 3505.043767 -70.115896 699844 13070.994229
0.115000 0.115153 11599.825426 4076.846239 -683.549852 836944 13070.994229
0.125000 0.125138 10656.626467 2729.155764 -428.709696 990800 13070.994229
0.135000 0.135129 9316.228078 2758.882165 150.759440 1154092 13070.994229
0.145000 0.145115 8299.713051 1606.178756 127.745476 1331264 13070.994229
0.155000 0.155110 7349.476227 1718.520920 669.078553 1523272 13070.994229
0.165000 0.165106 6697.321539 1880.263096 785.040385 1724308 13070.994229
0.175000 0.175099 6359.612481 1425.132984 422.734466 1940000 13070.994229
0.185000 0.185092 5908.246019 1217.703914 558.727042 2166820 13070.994229
0.195000 0.195086 5411.990478 980.782963 327.679738 2409008 13070.994229
0.205000 0.205085 4882.789516 737.932072 565.085324 2662912 13070.994229
0.215000 0.215079 4621.702900 699.797788 797.834499 2925748 13070.994229
0.225000 0.225074 4071.591955 741.026136 510.625420 3207272 13070.994229
0.235000 0.235071 4044.382796 617.122578 388.163594 3497242 13070.994229
0.245000 0.245068 3774.102610 438.350947 357.923649 3802172 13070.994229
0.255000 0.255064 3460.266981 441.508341 122.628660 4116616 13070.994229
0.265000 0.265062 3248.066858 402.821015 142.149400 4449244 13070.994229
0.275000 0.275059 2944.208685 137.098449 608.722708 4787288 13070.994229
0.285000 0.285055 2827.635950 235.821586 421.051197 5144392 13070.994229
0.295000 0.295057 2704.366239 118.172623 390.825299 5514980 13070.994229
0.305000 0.305058 2514.386151 -14.538531 237.091599 5891128 13070.994229
0.315000 0.315054 2353.579130 24.466958 352.691461 6282664 13070.994229
