#Data file /home/ssanz/TFG/lrg_eboss/catalogue/eBOSS_LRGpCMASS_clustering_NGC_v7_2.dat_t1.txt
#Random file /home/ssanz/TFG/lrg_eboss/catalogue/eBOSS_LRGpCMASS_clustering_NGC_v7_2.ran_t1.txt
#Number of data elements used: 255741
#Number of random elements used: 13180418
#Effective number of data elements weighted by wcol: 272225.865990
#Effective number of random elements weighted by wcol: 13502637.193769
#Effective number of data elements weighted by wcol*wsys: 271145.058630
#Effective number of random elements weighted by wcol*wsys: 13305549.885500
#Effective number of data elements weighted by wcol*wsys*wfkp: 126763.186623
#Effective number of random elements weighted by wcol*wsys*wfkp: 6203321.353026
#Effective redshift value from data 0.743469
#Effective redshift value from randoms 0.747344
#Size of the Box 5000.000000 Mpc/h
#Area of the survey used 1.000000 deg^2
#Value of alpha: 0.020435
#Normalization using data file
#Normalization using density
#Normalization 5.975205e+00
#Shot noise factor 1.000000
#Shot noise value 13070.994229
#Type of Computation: FFT
#Number of grid cells: 512
#Type of Mass Assigment: P5S
#Type of Yamamoto: GridCenter
#Number of Interlacing steps: 2
#Grid Correction: yes
#Value of Om=0.160000 OL=0.690000
#Quadrupole as L0L2
#Hexadecapole as L2L2
#k-centerbin	 k-eff	 Monopole-Pshotnoise	 Quadrupole	 Hexadecapole	 number of modes	 Pshotnoise
0.005000 0.007493 75332.550593 64634.904687 57245.607393 2102 13070.994229
0.015000 0.016066 61231.656567 15742.124669 13598.206867 14776 13070.994229
0.025000 0.025663 46950.974186 21223.153788 -105.069979 40172 13070.994229
0.035000 0.035474 40177.815450 17338.641702 4101.847954 77992 13070.994229
0.045000 0.045364 32017.844490 8428.230698 -200.577104 128744 13070.994229
0.055000 0.055298 27171.390461 10144.682590 2548.619223 192076 13070.994229
0.065000 0.065259 23880.733776 6745.311560 -1144.742853 268432 13070.994229
0.075000 0.075226 19934.159612 6064.727619 425.347614 356456 13070.994229
0.085000 0.085200 17473.980446 3799.636227 237.683971 458476 13070.994229
0.095000 0.095179 14421.143117 3387.711094 122.306451 571640 13070.994229
0.105000 0.105167 12406.114528 3615.562810 206.433812 699844 13070.994229
0.115000 0.115153 11406.539680 3595.373446 -1344.960152 836944 13070.994229
0.125000 0.125138 10322.019442 2554.182819 21.947238 990800 13070.994229
0.135000 0.135129 8944.228273 2153.754839 -26.895351 1154092 13070.994229
0.145000 0.145115 8045.836793 1399.538574 255.063605 1331264 13070.994229
0.155000 0.155110 7177.434372 1808.273397 903.055693 1523272 13070.994229
0.165000 0.165106 6500.616706 1384.872803 396.353961 1724308 13070.994229
0.175000 0.175099 6199.772255 1482.507718 429.759535 1940000 13070.994229
0.185000 0.185092 5715.148264 865.191076 468.803630 2166820 13070.994229
0.195000 0.195086 5167.867532 761.547460 330.149632 2409008 13070.994229
0.205000 0.205085 4820.944354 668.097337 685.926242 2662912 13070.994229
0.215000 0.215079 4349.576051 544.180543 633.994006 2925748 13070.994229
0.225000 0.225074 4035.020986 675.058380 433.769977 3207272 13070.994229
0.235000 0.235071 3896.139690 425.973565 345.262637 3497242 13070.994229
0.245000 0.245068 3618.911189 310.830381 225.711948 3802172 13070.994229
0.255000 0.255064 3389.994151 357.241267 16.175398 4116616 13070.994229
0.265000 0.265062 3045.383525 165.382032 468.941384 4449244 13070.994229
0.275000 0.275059 2832.218374 190.567051 577.144318 4787288 13070.994229
0.285000 0.285055 2758.716341 99.156058 293.241753 5144392 13070.994229
0.295000 0.295057 2571.141939 -94.406640 194.783668 5514980 13070.994229
0.305000 0.305058 2402.642950 -30.632689 405.003769 5891128 13070.994229
0.315000 0.315054 2327.451790 -98.251401 274.585430 6282664 13070.994229
