#Data file /home/ssanz/TFG/lrg_eboss/catalogue/eBOSS_LRGpCMASS_clustering_NGC_v7_2.dat_t1.txt
#Random file /home/ssanz/TFG/lrg_eboss/catalogue/eBOSS_LRGpCMASS_clustering_NGC_v7_2.ran_t1.txt
#Number of data elements used: 255741
#Number of random elements used: 13180418
#Effective number of data elements weighted by wcol: 272225.865990
#Effective number of random elements weighted by wcol: 13502637.193769
#Effective number of data elements weighted by wcol*wsys: 271145.058630
#Effective number of random elements weighted by wcol*wsys: 13305549.885500
#Effective number of data elements weighted by wcol*wsys*wfkp: 126763.186623
#Effective number of random elements weighted by wcol*wsys*wfkp: 6203321.353026
#Effective redshift value from data 0.743469
#Effective redshift value from randoms 0.747344
#Size of the Box 5000.000000 Mpc/h
#Area of the survey used 1.000000 deg^2
#Value of alpha: 0.020435
#Normalization using data file
#Normalization using density
#Normalization 5.975205e+00
#Shot noise factor 1.000000
#Shot noise value 13070.994229
#Type of Computation: FFT
#Number of grid cells: 512
#Type of Mass Assigment: P5S
#Type of Yamamoto: GridCenter
#Number of Interlacing steps: 2
#Grid Correction: yes
#Value of Om=0.310000 OL=0.890000
#Quadrupole as L0L2
#Hexadecapole as L2L2
#k-centerbin	 k-eff	 Monopole-Pshotnoise	 Quadrupole	 Hexadecapole	 number of modes	 Pshotnoise
0.005000 0.007493 75525.912146 65472.448733 59441.424199 2102 13070.994229
0.015000 0.016066 61018.570811 15742.543909 14877.919125 14776 13070.994229
0.025000 0.025663 47012.248617 21138.105225 -332.087738 40172 13070.994229
0.035000 0.035474 40680.900016 18870.405423 5345.478009 77992 13070.994229
0.045000 0.045364 32095.218357 8906.788422 490.899095 128744 13070.994229
0.055000 0.055298 27366.499619 10813.999202 2949.839537 192076 13070.994229
0.065000 0.065259 24374.855371 8217.069307 -376.860053 268432 13070.994229
0.075000 0.075226 20241.898394 6700.702883 282.410163 356456 13070.994229
0.085000 0.085200 17798.177728 4851.433689 1158.793425 458476 13070.994229
0.095000 0.095179 14757.870410 4012.963140 -149.912785 571640 13070.994229
0.105000 0.105167 12574.007741 3868.862745 206.232113 699844 13070.994229
0.115000 0.115153 11538.276480 4221.175949 -587.974872 836944 13070.994229
0.125000 0.125138 10615.223397 2914.534271 -419.688007 990800 13070.994229
0.135000 0.135129 9185.341750 2919.490441 176.931465 1154092 13070.994229
0.145000 0.145115 8212.310977 1797.014204 322.557875 1331264 13070.994229
0.155000 0.155110 7289.136939 1791.111254 729.152058 1523272 13070.994229
0.165000 0.165106 6646.398072 1967.278338 778.350880 1724308 13070.994229
0.175000 0.175099 6291.106287 1567.056903 503.299939 1940000 13070.994229
0.185000 0.185092 5897.997204 1324.155210 596.979751 2166820 13070.994229
0.195000 0.195086 5327.693292 1083.325395 320.841215 2409008 13070.994229
0.205000 0.205085 4874.715761 827.844352 753.614301 2662912 13070.994229
0.215000 0.215079 4552.544161 842.047054 683.990935 2925748 13070.994229
0.225000 0.225074 4074.885584 820.236083 629.316703 3207272 13070.994229
0.235000 0.235071 3982.200556 625.870599 386.593895 3497242 13070.994229
0.245000 0.245068 3727.037099 533.168461 280.408381 3802172 13070.994229
0.255000 0.255064 3439.097272 521.077026 223.617390 4116616 13070.994229
0.265000 0.265062 3212.546936 508.816669 195.902723 4449244 13070.994229
0.275000 0.275059 2891.627655 160.554672 484.691526 4787288 13070.994229
0.285000 0.285055 2841.467644 289.476077 413.024059 5144392 13070.994229
0.295000 0.295057 2680.665124 210.568150 392.373143 5514980 13070.994229
0.305000 0.305058 2474.493462 129.895426 387.765683 5891128 13070.994229
0.315000 0.315054 2362.381732 -26.567189 367.326350 6282664 13070.994229
