#Data file /home/ssanz/TFG/lrg_eboss/catalogue/eBOSS_LRGpCMASS_clustering_NGC_v7_2.dat_t1.txt
#Random file /home/ssanz/TFG/lrg_eboss/catalogue/eBOSS_LRGpCMASS_clustering_NGC_v7_2.ran_t1.txt
#Number of data elements used: 255741
#Number of random elements used: 13180418
#Effective number of data elements weighted by wcol: 272225.865990
#Effective number of random elements weighted by wcol: 13502637.193769
#Effective number of data elements weighted by wcol*wsys: 271145.058630
#Effective number of random elements weighted by wcol*wsys: 13305549.885500
#Effective number of data elements weighted by wcol*wsys*wfkp: 126763.186623
#Effective number of random elements weighted by wcol*wsys*wfkp: 6203321.353026
#Effective redshift value from data 0.743469
#Effective redshift value from randoms 0.747344
#Size of the Box 5000.000000 Mpc/h
#Area of the survey used 1.000000 deg^2
#Value of alpha: 0.020435
#Normalization using data file
#Normalization using density
#Normalization 5.975205e+00
#Shot noise factor 1.000000
#Shot noise value 13070.994229
#Type of Computation: FFT
#Number of grid cells: 512
#Type of Mass Assigment: P5S
#Type of Yamamoto: GridCenter
#Number of Interlacing steps: 2
#Grid Correction: yes
#Value of Om=0.310000 OL=0.790000
#Quadrupole as L0L2
#Hexadecapole as L2L2
#k-centerbin	 k-eff	 Monopole-Pshotnoise	 Quadrupole	 Hexadecapole	 number of modes	 Pshotnoise
0.005000 0.007493 76843.839339 67033.348713 60583.371296 2102 13070.994229
0.015000 0.016066 61082.341944 15879.606350 16845.727687 14776 13070.994229
0.025000 0.025663 47651.271146 21068.224195 -839.620320 40172 13070.994229
0.035000 0.035474 41482.759335 19163.479808 5260.440321 77992 13070.994229
0.045000 0.045364 32481.933559 9925.886583 1360.379788 128744 13070.994229
0.055000 0.055298 28091.405068 10491.423512 2879.077142 192076 13070.994229
0.065000 0.065259 24706.550244 9173.884539 85.598211 268432 13070.994229
0.075000 0.075226 20820.589710 6830.468867 -163.681446 356456 13070.994229
0.085000 0.085200 18269.840183 5205.219286 1753.309425 458476 13070.994229
0.095000 0.095179 15340.394034 4347.664620 -176.585198 571640 13070.994229
0.105000 0.105167 13092.676384 3918.623421 -27.334074 699844 13070.994229
0.115000 0.115153 11682.567074 4330.910153 -154.762609 836944 13070.994229
0.125000 0.125138 10968.313649 3322.683001 -687.607883 990800 13070.994229
0.135000 0.135129 9592.543696 3071.760080 -31.022992 1154092 13070.994229
0.145000 0.145115 8492.074320 2172.046792 611.298860 1331264 13070.994229
0.155000 0.155110 7594.288132 1879.279383 311.295052 1523272 13070.994229
0.165000 0.165106 6853.815999 1992.885599 954.509918 1724308 13070.994229
0.175000 0.175099 6472.021852 1582.297537 690.061842 1940000 13070.994229
0.185000 0.185092 6038.940662 1559.501517 665.075458 2166820 13070.994229
0.195000 0.195086 5565.469737 1259.890827 466.988254 2409008 13070.994229
0.205000 0.205085 5105.989677 1046.529963 370.288026 2662912 13070.994229
0.215000 0.215079 4704.435696 718.669689 822.394465 2925748 13070.994229
0.225000 0.225074 4271.790728 1029.207492 592.813222 3207272 13070.994229
0.235000 0.235071 4071.648343 630.894179 506.370486 3497242 13070.994229
0.245000 0.245068 3894.564084 629.063295 530.127005 3802172 13070.994229
0.255000 0.255064 3550.289815 664.510522 172.976661 4116616 13070.994229
0.265000 0.265062 3371.986332 488.505123 151.432215 4449244 13070.994229
0.275000 0.275059 3107.105554 389.302301 377.963330 4787288 13070.994229
0.285000 0.285055 2838.143267 245.132223 414.515486 5144392 13070.994229
0.295000 0.295057 2796.691697 277.134339 561.883815 5514980 13070.994229
0.305000 0.305058 2652.093480 196.959203 330.993211 5891128 13070.994229
0.315000 0.315054 2419.274887 151.960570 383.763330 6282664 13070.994229
