#Data file /home/ssanz/TFG/lrg_eboss/catalogue/eBOSS_LRGpCMASS_clustering_SGC_v7_2.dat_t1.txt
#Random file /home/ssanz/TFG/lrg_eboss/catalogue/eBOSS_LRGpCMASS_clustering_SGC_v7_2.ran_t1.txt
#Number of data elements used: 121717
#Number of random elements used: 6065434
#Effective number of data elements weighted by wcol: 129825.874207
#Effective number of random elements weighted by wcol: 6262432.996162
#Effective number of data elements weighted by wcol*wsys: 131020.639554
#Effective number of random elements weighted by wcol*wsys: 6174499.240464
#Effective number of data elements weighted by wcol*wsys*wfkp: 58854.466957
#Effective number of random elements weighted by wcol*wsys*wfkp: 2769143.999137
#Effective redshift value from data 0.762553
#Effective redshift value from randoms 0.767351
#Size of the Box 5000.000000 Mpc/h
#Area of the survey used 1.000000 deg^2
#Value of alpha: 0.021254
#Normalization using data file
#Normalization using density
#Normalization 2.852464e+00
#Shot noise factor 1.000000
#Shot noise value 12621.780293
#Type of Computation: FFT
#Number of grid cells: 512
#Type of Mass Assigment: P5S
#Type of Yamamoto: GridCenter
#Number of Interlacing steps: 2
#Grid Correction: yes
#Value of Om=0.310000 OL=0.490000
#Quadrupole as L0L2
#Hexadecapole as L2L2
#k-centerbin	 k-eff	 Monopole-Pshotnoise	 Quadrupole	 Hexadecapole	 number of modes	 Pshotnoise
0.005000 0.007493 69788.340273 19182.695368 103.142355 2102 12621.780293
0.015000 0.016066 61627.838699 14975.762324 17178.777547 14776 12621.780293
0.025000 0.025663 52180.668946 6248.400213 3127.125907 40172 12621.780293
0.035000 0.035474 39851.785234 6710.649527 -12174.739537 77992 12621.780293
0.045000 0.045364 32269.676460 13360.504148 1624.335540 128744 12621.780293
0.055000 0.055298 27824.742224 10937.257017 6690.247256 192076 12621.780293
0.065000 0.065259 23582.355595 10698.881869 -964.427818 268432 12621.780293
0.075000 0.075226 21594.566519 8126.153639 -346.473435 356456 12621.780293
0.085000 0.085200 19344.568491 7885.611589 2618.747138 458476 12621.780293
0.095000 0.095179 16070.275160 6514.451012 4106.222648 571640 12621.780293
0.105000 0.105167 13382.569009 5341.834623 2026.810530 699844 12621.780293
0.115000 0.115153 11919.403601 5573.929258 364.975946 836944 12621.780293
0.125000 0.125138 11321.918933 3948.472206 1401.705366 990800 12621.780293
0.135000 0.135129 10181.677470 3191.865702 228.791831 1154092 12621.780293
0.145000 0.145115 9083.127822 2962.115415 -272.503394 1331264 12621.780293
0.155000 0.155110 7969.998143 2267.239696 684.422705 1523272 12621.780293
0.165000 0.165106 7179.342046 2360.552266 1294.470519 1724308 12621.780293
0.175000 0.175099 6497.569665 1601.335548 568.757087 1940000 12621.780293
0.185000 0.185092 6092.892086 1663.041187 224.861161 2166820 12621.780293
0.195000 0.195086 5743.596259 1545.254297 -54.145525 2409008 12621.780293
0.205000 0.205085 5220.715677 1227.667558 -150.929843 2662912 12621.780293
0.215000 0.215079 4987.341767 1231.498734 198.348774 2925748 12621.780293
0.225000 0.225074 4672.013081 579.626858 404.691873 3207272 12621.780293
0.235000 0.235071 4333.934024 719.904809 319.532431 3497242 12621.780293
0.245000 0.245068 4119.850645 735.428940 -63.955658 3802172 12621.780293
0.255000 0.255064 3772.408940 815.741316 769.952723 4116616 12621.780293
0.265000 0.265062 3662.688376 1014.451391 115.050383 4449244 12621.780293
0.275000 0.275059 3456.617643 459.401706 602.125584 4787288 12621.780293
0.285000 0.285055 3298.272636 482.620960 657.073624 5144392 12621.780293
0.295000 0.295057 2938.577697 323.183693 391.656815 5514980 12621.780293
0.305000 0.305058 2804.061463 258.994674 425.491531 5891128 12621.780293
0.315000 0.315054 2606.822117 194.495027 393.362918 6282664 12621.780293
