#Data file /home/ssanz/TFG/lrg_eboss/catalogue/eBOSS_LRGpCMASS_clustering_SGC_v7_2.dat_t1.txt
#Random file /home/ssanz/TFG/lrg_eboss/catalogue/eBOSS_LRGpCMASS_clustering_SGC_v7_2.ran_t1.txt
#Number of data elements used: 121717
#Number of random elements used: 6065434
#Effective number of data elements weighted by wcol: 129825.874207
#Effective number of random elements weighted by wcol: 6262432.996162
#Effective number of data elements weighted by wcol*wsys: 131020.639554
#Effective number of random elements weighted by wcol*wsys: 6174499.240464
#Effective number of data elements weighted by wcol*wsys*wfkp: 58854.466957
#Effective number of random elements weighted by wcol*wsys*wfkp: 2769143.999137
#Effective redshift value from data 0.762553
#Effective redshift value from randoms 0.767351
#Size of the Box 5000.000000 Mpc/h
#Area of the survey used 1.000000 deg^2
#Value of alpha: 0.021254
#Normalization using data file
#Normalization using density
#Normalization 2.852464e+00
#Shot noise factor 1.000000
#Shot noise value 12621.780293
#Type of Computation: FFT
#Number of grid cells: 512
#Type of Mass Assigment: P5S
#Type of Yamamoto: GridCenter
#Number of Interlacing steps: 2
#Grid Correction: yes
#Value of Om=0.310000 OL=0.890000
#Quadrupole as L0L2
#Hexadecapole as L2L2
#k-centerbin	 k-eff	 Monopole-Pshotnoise	 Quadrupole	 Hexadecapole	 number of modes	 Pshotnoise
0.005000 0.007493 65717.203908 22321.795907 10770.541425 2102 12621.780293
0.015000 0.016066 60983.173365 13235.862641 19716.581841 14776 12621.780293
0.025000 0.025663 49748.274368 3864.853102 -4632.705875 40172 12621.780293
0.035000 0.035474 36614.143294 9247.903580 -7421.741764 77992 12621.780293
0.045000 0.045364 30286.421745 12616.181453 4156.301306 128744 12621.780293
0.055000 0.055298 26260.402229 10578.546641 2535.890631 192076 12621.780293
0.065000 0.065259 22289.702196 8124.229026 -1547.491268 268432 12621.780293
0.075000 0.075226 20096.755616 8793.941593 1166.304944 356456 12621.780293
0.085000 0.085200 16903.924255 6054.536933 4014.675121 458476 12621.780293
0.095000 0.095179 13861.766863 4878.758906 2404.924647 571640 12621.780293
0.105000 0.105167 12028.246397 5373.901473 371.043706 699844 12621.780293
0.115000 0.115153 11268.796280 3736.172847 1093.698965 836944 12621.780293
0.125000 0.125138 10087.782067 2850.236618 -268.954502 990800 12621.780293
0.135000 0.135129 8815.971288 2456.414536 -219.873287 1154092 12621.780293
0.145000 0.145115 7867.463964 2315.276398 881.473935 1331264 12621.780293
0.155000 0.155110 6772.067646 1801.994309 801.515385 1523272 12621.780293
0.165000 0.165106 6352.546916 1372.690102 509.059548 1724308 12621.780293
0.175000 0.175099 5889.447610 1585.388631 -25.884059 1940000 12621.780293
0.185000 0.185092 5401.103111 1028.941034 -197.756605 2166820 12621.780293
0.195000 0.195086 5059.534588 1170.592567 87.128310 2409008 12621.780293
0.205000 0.205085 4731.930797 563.596936 175.199183 2662912 12621.780293
0.215000 0.215079 4370.037817 528.890586 449.897275 2925748 12621.780293
0.225000 0.225074 4125.517858 642.013796 -47.326294 3207272 12621.780293
0.235000 0.235071 3801.910809 850.209125 756.169030 3497242 12621.780293
0.245000 0.245068 3590.332581 772.631650 -35.486381 3802172 12621.780293
0.255000 0.255064 3431.430937 413.717512 633.835515 4116616 12621.780293
0.265000 0.265062 3118.408830 173.739302 562.246871 4449244 12621.780293
0.275000 0.275059 2886.163364 304.580859 413.945454 4787288 12621.780293
0.285000 0.285055 2706.040905 82.929240 327.743143 5144392 12621.780293
0.295000 0.295057 2577.901578 143.221262 289.615719 5514980 12621.780293
0.305000 0.305058 2442.816399 110.722353 272.457531 5891128 12621.780293
0.315000 0.315054 2260.824708 120.107826 222.990563 6282664 12621.780293
