#Data file /home/ssanz/TFG/lrg_eboss/catalogue/eBOSS_LRGpCMASS_clustering_SGC_v7_2.dat_t1.txt
#Random file /home/ssanz/TFG/lrg_eboss/catalogue/eBOSS_LRGpCMASS_clustering_SGC_v7_2.ran_t1.txt
#Number of data elements used: 121717
#Number of random elements used: 6065434
#Effective number of data elements weighted by wcol: 129825.874207
#Effective number of random elements weighted by wcol: 6262432.996162
#Effective number of data elements weighted by wcol*wsys: 131020.639554
#Effective number of random elements weighted by wcol*wsys: 6174499.240464
#Effective number of data elements weighted by wcol*wsys*wfkp: 58854.466957
#Effective number of random elements weighted by wcol*wsys*wfkp: 2769143.999137
#Effective redshift value from data 0.762553
#Effective redshift value from randoms 0.767351
#Size of the Box 5000.000000 Mpc/h
#Area of the survey used 1.000000 deg^2
#Value of alpha: 0.021254
#Normalization using data file
#Normalization using density
#Normalization 2.852464e+00
#Shot noise factor 1.000000
#Shot noise value 12621.780293
#Type of Computation: FFT
#Number of grid cells: 512
#Type of Mass Assigment: P5S
#Type of Yamamoto: GridCenter
#Number of Interlacing steps: 2
#Grid Correction: yes
#Value of Om=0.410000 OL=0.690000
#Quadrupole as L0L2
#Hexadecapole as L2L2
#k-centerbin	 k-eff	 Monopole-Pshotnoise	 Quadrupole	 Hexadecapole	 number of modes	 Pshotnoise
0.005000 0.007493 69513.931893 19854.290202 1966.825037 2102 12621.780293
0.015000 0.016066 61758.741673 14418.601991 16835.060473 14776 12621.780293
0.025000 0.025663 52086.936216 6923.138712 4076.337449 40172 12621.780293
0.035000 0.035474 39568.571842 7602.796997 -12323.165753 77992 12621.780293
0.045000 0.045364 32111.427348 13518.594199 2076.596790 128744 12621.780293
0.055000 0.055298 27661.111030 10877.327239 6430.302951 192076 12621.780293
0.065000 0.065259 23544.802165 11201.282819 -302.647005 268432 12621.780293
0.075000 0.075226 21415.516526 8249.286446 -282.850455 356456 12621.780293
0.085000 0.085200 19276.012481 8063.587765 2726.332039 458476 12621.780293
0.095000 0.095179 15938.544679 6701.706219 4067.080783 571640 12621.780293
0.105000 0.105167 13290.961845 5902.610169 2166.459525 699844 12621.780293
0.115000 0.115153 11842.684100 5559.869924 582.852611 836944 12621.780293
0.125000 0.125138 11292.383545 4156.698422 1576.949562 990800 12621.780293
0.135000 0.135129 10160.844675 3386.568893 211.032577 1154092 12621.780293
0.145000 0.145115 9039.366892 3297.874324 6.538921 1331264 12621.780293
0.155000 0.155110 7946.264077 2218.908597 767.758802 1523272 12621.780293
0.165000 0.165106 7097.328644 2669.042472 1324.760979 1724308 12621.780293
0.175000 0.175099 6495.379943 1768.893296 838.465562 1940000 12621.780293
0.185000 0.185092 6052.686644 1765.124980 50.157912 2166820 12621.780293
0.195000 0.195086 5753.723149 1700.796194 107.819872 2409008 12621.780293
0.205000 0.205085 5156.306677 1253.715129 -78.346587 2662912 12621.780293
0.215000 0.215079 4966.586313 1271.095207 313.623358 2925748 12621.780293
0.225000 0.225074 4701.811885 794.194060 356.811093 3207272 12621.780293
0.235000 0.235071 4252.315386 771.228517 151.531986 3497242 12621.780293
0.245000 0.245068 4118.778580 868.528272 96.780524 3802172 12621.780293
0.255000 0.255064 3750.932637 781.216122 637.645082 4116616 12621.780293
0.265000 0.265062 3635.063049 1080.994014 455.046914 4449244 12621.780293
0.275000 0.275059 3470.891837 485.618369 471.530492 4787288 12621.780293
0.285000 0.285055 3237.070135 608.325133 556.069428 5144392 12621.780293
0.295000 0.295057 2953.846403 405.500975 359.810784 5514980 12621.780293
0.305000 0.305058 2813.557776 370.813877 672.384876 5891128 12621.780293
0.315000 0.315054 2603.406987 277.599997 373.326548 6282664 12621.780293
